Time [s], PLETH
0,0.67253
0.008,0.69892
0.016,0.72336
0.024,0.74291
0.032,0.75758
0.04,0.76833
0.048,0.77419
0.056,0.77517
0.064,0.77126
0.072,0.76442
0.08,0.75367
0.088,0.73998
0.096,0.72239
0.104,0.70186
0.112,0.67937
0.12,0.65591
0.128,0.6305
0.136,0.60606
0.144,0.58162
0.152,0.55718
0.16,0.53568
0.168,0.51613
0.176,0.49951
0.184,0.48192
0.192,0.46432
0.2,0.44868
0.208,0.435
0.216,0.42229
0.224,0.41251
0.232,0.40469
0.24,0.39785
0.248,0.39198
0.256,0.38807
0.264,0.38514
0.272,0.38319
0.28,0.38221
0.288,0.38025
0.296,0.37928
0.304,0.37732
0.312,0.37634
0.32,0.37537
0.328,0.37439
0.336,0.37341
0.344,0.37243
0.352,0.37048
0.36,0.37048
0.368,0.37048
0.376,0.3695
0.384,0.36852
0.392,0.36559
0.4,0.36266
0.408,0.35973
0.416,0.35679
0.424,0.35288
0.432,0.34897
0.44,0.34604
0.448,0.34311
0.456,0.3392
0.464,0.33627
0.472,0.33333
0.48,0.3304
0.488,0.32551
0.496,0.3216
0.504,0.31867
0.512,0.31574
0.52,0.31574
0.528,0.31769
0.536,0.32454
0.544,0.33529
0.552,0.35093
0.56,0.36755
0.568,0.38807
0.576,0.41544
0.584,0.44673
0.592,0.48289
0.6,0.52004
0.608,0.55816
0.616,0.59531
0.624,0.61877
0.632,0.63245
0.64,0.652
0.648,0.67253
0.656,0.69013
0.664,0.70283
0.672,0.70968
0.68,0.71554
0.688,0.71848
0.696,0.71848
0.704,0.71359
0.712,0.70479
0.72,0.69306
0.728,0.67742
0.736,0.65787
0.744,0.63636
0.752,0.6129
0.76,0.5914
0.768,0.56989
0.776,0.54741
0.784,0.52297
0.792,0.49951
0.8,0.47703
0.808,0.45552
0.816,0.435
0.824,0.41642
0.832,0.3998
0.84,0.38514
0.848,0.37146
0.856,0.35973
0.864,0.35093
0.872,0.34409
0.88,0.33822
0.888,0.33236
0.896,0.32845
0.904,0.32649
0.912,0.32454
0.92,0.32258
0.928,0.3216
0.936,0.32063
0.944,0.31867
0.952,0.31769
0.96,0.31672
0.968,0.31672
0.976,0.31574
0.984,0.31378
0.992,0.31183
1,0.30987
1.008,0.30694
1.016,0.30401
1.024,0.3001
1.032,0.29717
1.04,0.29326
1.048,0.28935
1.056,0.28446
1.064,0.28055
1.072,0.27761
1.08,0.2737
1.088,0.26979
1.096,0.26491
1.104,0.26002
1.112,0.25611
1.12,0.25122
1.128,0.24731
1.136,0.24242
1.144,0.23851
1.152,0.23558
1.16,0.23558
1.168,0.23851
1.176,0.24438
1.184,0.25513
1.192,0.27175
1.2,0.29326
1.208,0.32063
1.216,0.35191
1.224,0.38612
1.232,0.42229
1.24,0.45943
1.248,0.49658
1.256,0.53275
1.264,0.56207
1.272,0.58749
1.28,0.61193
1.288,0.63539
1.296,0.65494
1.304,0.67155
1.312,0.68426
1.32,0.69208
1.328,0.69501
1.336,0.69306
1.344,0.68719
1.352,0.67742
1.36,0.66471
1.368,0.65005
1.376,0.6305
1.384,0.60802
1.392,0.58358
1.4,0.55816
1.408,0.53275
1.416,0.50635
1.424,0.48094
1.432,0.45552
1.44,0.43304
1.448,0.41056
1.456,0.39101
1.464,0.37439
1.472,0.36168
1.48,0.348
1.488,0.33627
1.496,0.32649
1.504,0.31867
1.512,0.31183
1.52,0.30792
1.528,0.30401
1.536,0.30108
1.544,0.29814
1.552,0.29619
1.56,0.29423
1.568,0.29326
1.576,0.29228
1.584,0.29032
1.592,0.28935
1.6,0.28837
1.608,0.28739
1.616,0.28543
1.624,0.28348
1.632,0.28152
1.64,0.27957
1.648,0.27761
1.656,0.27468
1.664,0.2737
1.672,0.27273
1.68,0.27077
1.688,0.26784
1.696,0.26393
1.704,0.26002
1.712,0.25611
1.72,0.25122
1.728,0.24633
1.736,0.24145
1.744,0.23656
1.752,0.23167
1.76,0.22874
1.768,0.22678
1.776,0.22483
1.784,0.2219
1.792,0.2219
1.8,0.22385
1.808,0.22972
1.816,0.24047
1.824,0.25806
1.832,0.28152
1.84,0.31085
1.848,0.34506
1.856,0.38319
1.864,0.41935
1.872,0.45259
1.88,0.49071
1.888,0.52981
1.896,0.56696
1.904,0.60313
1.912,0.63539
1.92,0.66373
1.928,0.68622
1.936,0.70479
1.944,0.71848
1.952,0.72727
1.96,0.73021
1.968,0.72923
1.976,0.7263
1.984,0.71945
1.992,0.70772
2,0.69306
2.008,0.67351
2.016,0.652
2.024,0.62952
2.032,0.60411
2.04,0.57869
2.048,0.55425
2.056,0.53177
2.064,0.51124
2.072,0.48876
2.08,0.46725
2.088,0.44673
2.096,0.42717
2.104,0.40958
2.112,0.39394
2.12,0.38123
2.128,0.37146
2.136,0.36364
2.144,0.35777
2.152,0.35386
2.16,0.35191
2.168,0.35191
2.176,0.35093
2.184,0.35093
2.192,0.35093
2.2,0.35191
2.208,0.35191
2.216,0.35191
2.224,0.35288
2.232,0.35386
2.24,0.35484
2.248,0.35582
2.256,0.35679
2.264,0.35777
2.272,0.35777
2.28,0.35777
2.288,0.35777
2.296,0.35777
2.304,0.35679
2.312,0.35582
2.32,0.35386
2.328,0.35191
2.336,0.34897
2.344,0.34604
2.352,0.34311
2.36,0.34018
2.368,0.33724
2.376,0.33333
2.384,0.32845
2.392,0.32356
2.4,0.31867
2.408,0.31378
2.416,0.3089
2.424,0.30596
2.432,0.30401
2.44,0.30694
2.448,0.31476
2.456,0.32454
2.464,0.33822
2.472,0.35973
2.48,0.38807
2.488,0.42131
2.496,0.45846
2.504,0.49853
2.512,0.53959
2.52,0.57967
2.528,0.61779
2.536,0.65298
2.544,0.68524
2.552,0.71457
2.56,0.73509
2.568,0.74976
2.576,0.76442
2.584,0.77517
2.592,0.78299
2.6,0.78592
2.608,0.78495
2.616,0.77908
2.624,0.76931
2.632,0.75562
2.64,0.739
2.648,0.71848
2.656,0.69795
2.664,0.67644
2.672,0.64809
2.68,0.61681
2.688,0.58847
2.696,0.56305
2.704,0.53959
2.712,0.51711
2.72,0.49462
2.728,0.4741
2.736,0.45455
2.744,0.43793
2.752,0.42326
2.76,0.41251
2.768,0.40469
2.776,0.39687
2.784,0.38905
2.792,0.38319
2.8,0.3783
2.808,0.37439
2.816,0.37048
2.824,0.36852
2.832,0.36657
2.84,0.36461
2.848,0.36364
2.856,0.36266
2.864,0.36168
2.872,0.35973
2.88,0.35777
2.888,0.35582
2.896,0.35386
2.904,0.35191
2.912,0.34995
2.92,0.348
2.928,0.34604
2.936,0.34409
2.944,0.34213
2.952,0.34115
2.96,0.34018
2.968,0.33822
2.976,0.33627
2.984,0.33333
2.992,0.32942
3,0.32454
3.008,0.31965
3.016,0.31476
3.024,0.31085
3.032,0.30694
3.04,0.30401
3.048,0.30205
3.056,0.3001
3.064,0.29912
3.072,0.29619
3.08,0.29326
3.088,0.29032
3.096,0.28641
3.104,0.2825
3.112,0.27957
3.12,0.27664
3.128,0.27468
3.136,0.27273
3.144,0.27175
3.152,0.27077
3.16,0.26979
3.168,0.26979
3.176,0.26979
3.184,0.26882
3.192,0.26882
3.2,0.26882
3.208,0.26784
3.216,0.26686
3.224,0.26588
3.232,0.26491
3.24,0.26491
3.248,0.26491
3.256,0.26588
3.264,0.26784
3.272,0.26882
3.28,0.26979
3.288,0.27077
3.296,0.27077
3.304,0.27175
3.312,0.27175
3.32,0.27175
3.328,0.27273
3.336,0.2737
3.344,0.2737
3.352,0.27273
3.36,0.27273
3.368,0.27273
3.376,0.27273
3.384,0.27175
3.392,0.27077
3.4,0.26979
3.408,0.26979
3.416,0.26979
3.424,0.26979
3.432,0.26979
3.44,0.26882
3.448,0.26784
3.456,0.26784
3.464,0.26784
3.472,0.26784
3.48,0.26686
3.488,0.26588
3.496,0.26588
3.504,0.26588
3.512,0.26588
3.52,0.26686
3.528,0.26686
3.536,0.26686
3.544,0.26686
3.552,0.26686
3.56,0.26784
3.568,0.26882
3.576,0.26882
3.584,0.26882
3.592,0.26784
3.6,0.26882
3.608,0.26979
3.616,0.27077
3.624,0.27175
3.632,0.2737
3.64,0.27468
3.648,0.27566
3.656,0.27664
3.664,0.27761
3.672,0.27761
3.68,0.27761
3.688,0.27761
3.696,0.27761
3.704,0.27957
3.712,0.28446
3.72,0.29423
3.728,0.3089
3.736,0.3304
3.744,0.35875
3.752,0.39198
3.76,0.42424
3.768,0.4565
3.776,0.4956
3.784,0.53763
3.792,0.58065
3.8,0.62268
3.808,0.66276
3.816,0.70088
3.824,0.73607
3.832,0.76735
3.84,0.79374
3.848,0.81623
3.856,0.83089
3.864,0.84066
3.872,0.84848
3.88,0.85337
3.888,0.85533
3.896,0.85239
3.904,0.84653
3.912,0.83675
3.92,0.82307
3.928,0.80743
3.936,0.78788
3.944,0.76735
3.952,0.74682
3.96,0.72532
3.968,0.70186
3.976,0.6784
3.984,0.65396
3.992,0.6305
4,0.60704
4.008,0.58553
4.016,0.56403
4.024,0.54545
4.032,0.52884
4.04,0.51417
4.048,0.50049
4.056,0.49071
4.064,0.48192
4.072,0.47507
4.08,0.46823
4.088,0.46334
4.096,0.45943
4.104,0.45552
4.112,0.45161
4.12,0.44868
4.128,0.44575
4.136,0.44282
4.144,0.43988
4.152,0.43793
4.16,0.435
4.168,0.43206
4.176,0.42815
4.184,0.42424
4.192,0.42033
4.2,0.4174
4.208,0.41349
4.216,0.40958
4.224,0.40665
4.232,0.40274
4.24,0.39883
4.248,0.39492
4.256,0.39101
4.264,0.3871
4.272,0.38221
4.28,0.37732
4.288,0.37146
4.296,0.36657
4.304,0.3607
4.312,0.35484
4.32,0.34897
4.328,0.34506
4.336,0.34115
4.344,0.33724
4.352,0.33529
4.36,0.33431
4.368,0.33431
4.376,0.33822
4.384,0.34604
4.392,0.35777
4.4,0.37537
4.408,0.39687
4.416,0.42229
4.424,0.45161
4.432,0.48192
4.44,0.5132
4.448,0.54448
4.456,0.57087
4.464,0.59335
4.472,0.61681
4.48,0.6393
4.488,0.65885
4.496,0.67546
4.504,0.68817
4.512,0.69795
4.52,0.70283
4.528,0.70381
4.536,0.70186
4.544,0.69599
4.552,0.68719
4.56,0.67546
4.568,0.6608
4.576,0.64321
4.584,0.62366
4.592,0.60215
4.6,0.58065
4.608,0.55816
4.616,0.53666
4.624,0.51515
4.632,0.49365
4.64,0.47312
4.648,0.45357
4.656,0.43597
4.664,0.42229
4.672,0.40762
4.68,0.39394
4.688,0.38123
4.696,0.37048
4.704,0.3607
4.712,0.35288
4.72,0.3392
4.728,0.32454
4.736,0.31476
4.744,0.30987
4.752,0.30694
4.76,0.30499
4.768,0.30401
4.776,0.30303
4.784,0.30205
4.792,0.30205
4.8,0.30108
4.808,0.3001
4.816,0.29814
4.824,0.29717
4.832,0.29619
4.84,0.29423
4.848,0.29228
4.856,0.2913
4.864,0.28935
4.872,0.28837
4.88,0.28641
4.888,0.28446
4.896,0.28152
4.904,0.27859
4.912,0.27566
4.92,0.27175
4.928,0.26882
4.936,0.26491
4.944,0.26197
4.952,0.25904
4.96,0.25709
4.968,0.25513
4.976,0.25122
4.984,0.24829
4.992,0.24633
5,0.24536
5.008,0.24633
5.016,0.25122
5.024,0.25806
5.032,0.26979
5.04,0.28641
5.048,0.30694
5.056,0.32649
5.064,0.34702
5.072,0.37243
5.08,0.3998
5.088,0.42815
5.096,0.4565
5.104,0.48289
5.112,0.50831
5.12,0.53177
5.128,0.5523
5.136,0.56891
5.144,0.5826
5.152,0.5914
5.16,0.59531
5.168,0.59824
5.176,0.59922
5.184,0.59629
5.192,0.5914
5.2,0.5826
5.208,0.57185
5.216,0.55718
5.224,0.54154
5.232,0.52297
5.24,0.5044
5.248,0.48387
5.256,0.46628
5.264,0.44966
5.272,0.43206
5.28,0.41447
5.288,0.39589
5.296,0.37928
5.304,0.36364
5.312,0.34995
5.32,0.33822
5.328,0.32747
5.336,0.31965
5.344,0.31281
5.352,0.30792
5.36,0.30499
5.368,0.30303
5.376,0.3001
5.384,0.29814
5.392,0.29717
5.4,0.29619
5.408,0.29521
5.416,0.29423
5.424,0.29326
5.432,0.29228
5.44,0.29228
5.448,0.2913
5.456,0.29032
5.464,0.29032
5.472,0.29032
5.48,0.28935
5.488,0.28837
5.496,0.28739
5.504,0.28739
5.512,0.28739
5.52,0.28739
5.528,0.28739
5.536,0.28739
5.544,0.28739
5.552,0.28739
5.56,0.28739
5.568,0.28641
5.576,0.28446
5.584,0.28348
5.592,0.28152
5.6,0.27957
5.608,0.27859
5.616,0.27664
5.624,0.27468
5.632,0.27468
5.64,0.27566
5.648,0.27859
5.656,0.28446
5.664,0.29228
5.672,0.30401
5.68,0.32063
5.688,0.34115
5.696,0.36461
5.704,0.39003
5.712,0.4174
5.72,0.44575
5.728,0.4741
5.736,0.50049
5.744,0.52493
5.752,0.54545
5.76,0.56109
5.768,0.57869
5.776,0.59335
5.784,0.60508
5.792,0.61486
5.8,0.62072
5.808,0.62268
5.816,0.62268
5.824,0.61877
5.832,0.6129
5.84,0.60313
5.848,0.59335
5.856,0.58162
5.864,0.56794
5.872,0.5523
5.88,0.53568
5.888,0.51808
5.896,0.49951
5.904,0.48192
5.912,0.46432
5.92,0.4477
5.928,0.43304
5.936,0.41838
5.944,0.40567
5.952,0.39492
5.96,0.38612
5.968,0.3783
5.976,0.37048
5.984,0.36364
5.992,0.35777
6,0.35386
6.008,0.34995
6.016,0.34702
6.024,0.34409
6.032,0.34311
6.04,0.34213
6.048,0.34115
6.056,0.34115
6.064,0.34018
6.072,0.3392
6.08,0.33822
6.088,0.33724
6.096,0.33627
6.104,0.33529
6.112,0.33431
6.12,0.33236
6.128,0.33138
6.136,0.3304
6.144,0.32942
6.152,0.32845
6.16,0.32747
6.168,0.32551
6.176,0.32454
6.184,0.32258
6.192,0.32063
6.2,0.31769
6.208,0.31476
6.216,0.31281
6.224,0.30987
6.232,0.30694
6.24,0.30401
6.248,0.30205
6.256,0.29912
6.264,0.29619
6.272,0.29423
6.28,0.29228
6.288,0.2913
6.296,0.29423
6.304,0.3001
6.312,0.31085
6.32,0.32649
6.328,0.34604
6.336,0.3695
6.344,0.39589
6.352,0.42033
6.36,0.44379
6.368,0.47116
6.376,0.49853
6.384,0.52688
6.392,0.5523
6.4,0.57674
6.408,0.59824
6.416,0.61681
6.424,0.63245
6.432,0.64418
6.44,0.652
6.448,0.65494
6.456,0.65494
6.464,0.65298
6.472,0.64809
6.48,0.64027
6.488,0.6305
6.496,0.61779
6.504,0.60313
6.512,0.58651
6.52,0.56794
6.528,0.54839
6.536,0.52884
6.544,0.50929
6.552,0.49169
6.56,0.47605
6.568,0.45943
6.576,0.44379
6.584,0.42815
6.592,0.41349
6.6,0.3998
6.608,0.3871
6.616,0.37634
6.624,0.36657
6.632,0.35875
6.64,0.35191
6.648,0.34702
6.656,0.34311
6.664,0.34018
6.672,0.33822
6.68,0.33627
6.688,0.33431
6.696,0.33236
6.704,0.33138
6.712,0.32942
6.72,0.32845
6.728,0.32747
6.736,0.32649
6.744,0.32551
6.752,0.32454
6.76,0.32356
6.768,0.32747
6.776,0.33431
6.784,0.33627
6.792,0.33627
6.8,0.33431
6.808,0.33236
6.816,0.32942
6.824,0.32551
6.832,0.32258
6.84,0.31867
6.848,0.31574
6.856,0.31281
6.864,0.3089
6.872,0.30499
6.88,0.30108
6.888,0.29619
6.896,0.29228
6.904,0.28837
6.912,0.28348
6.92,0.28055
6.928,0.27859
6.936,0.27957
6.944,0.28348
6.952,0.29032
6.96,0.30108
6.968,0.31672
6.976,0.3392
6.984,0.36559
6.992,0.39492
7,0.42717
7.008,0.46139
7.016,0.4956
7.024,0.52884
7.032,0.56012
7.04,0.58944
7.048,0.61193
7.056,0.63148
7.064,0.65005
7.072,0.66569
7.08,0.67937
7.088,0.68817
7.096,0.69208
7.104,0.69306
7.112,0.68915
7.12,0.68133
7.128,0.67058
7.136,0.65591
7.144,0.6393
7.152,0.62268
7.16,0.60508
7.168,0.58553
7.176,0.565
7.184,0.54252
7.192,0.52004
7.2,0.49756
7.208,0.47507
7.216,0.45455
7.224,0.435
7.232,0.4174
7.24,0.40078
7.248,0.3871
7.256,0.37634
7.264,0.36657
7.272,0.35679
7.28,0.34897
7.288,0.34311
7.296,0.33822
7.304,0.33529
7.312,0.33333
7.32,0.33138
7.328,0.3304
7.336,0.3304
7.344,0.3304
7.352,0.3304
7.36,0.33138
7.368,0.33138
7.376,0.33138
7.384,0.33138
7.392,0.3304
7.4,0.32942
7.408,0.32845
7.416,0.32747
7.424,0.32649
7.432,0.32454
7.44,0.32258
7.448,0.32063
7.456,0.31867
7.464,0.31672
7.472,0.31378
7.48,0.31085
7.488,0.30792
7.496,0.30401
7.504,0.3001
7.512,0.29717
7.52,0.29326
7.528,0.28837
7.536,0.28446
7.544,0.28152
7.552,0.27859
7.56,0.27566
7.568,0.27175
7.576,0.26979
7.584,0.27077
7.592,0.27468
7.6,0.2825
7.608,0.29619
7.616,0.31476
7.624,0.33724
7.632,0.36461
7.64,0.39492
7.648,0.42229
7.656,0.44966
7.664,0.47996
7.672,0.51124
7.68,0.54154
7.688,0.57087
7.696,0.59726
7.704,0.61975
7.712,0.63832
7.72,0.65396
7.728,0.66569
7.736,0.67253
7.744,0.67449
7.752,0.67351
7.76,0.66862
7.768,0.66178
7.776,0.65005
7.784,0.63636
7.792,0.61975
7.8,0.60117
7.808,0.57967
7.816,0.55718
7.824,0.5347
7.832,0.51124
7.84,0.48778
7.848,0.46823
7.856,0.44966
7.864,0.43109
7.872,0.41251
7.88,0.39394
7.888,0.37732
7.896,0.36266
7.904,0.34897
7.912,0.33822
7.92,0.32942
7.928,0.32258
7.936,0.31672
7.944,0.31281
7.952,0.31085
7.96,0.3089
7.968,0.30792
7.976,0.30694
7.984,0.30596
7.992,0.30401
8,0.30303
8.008,0.30205
8.016,0.30108
8.024,0.30108
8.032,0.3001
8.04,0.29912
8.048,0.29814
8.056,0.29814
8.064,0.29717
8.072,0.29619
8.08,0.29423
8.088,0.29326
8.096,0.2913
8.104,0.28935
8.112,0.28641
8.12,0.2825
8.128,0.27859
8.136,0.27468
8.144,0.27175
8.152,0.26882
8.16,0.26588
8.168,0.261
8.176,0.25611
8.184,0.25122
8.192,0.24633
8.2,0.24145
8.208,0.23754
8.216,0.23558
8.224,0.2346
8.232,0.23754
8.24,0.2434
8.248,0.25318
8.256,0.26588
8.264,0.28348
8.272,0.30596
8.28,0.33236
8.288,0.36266
8.296,0.39589
8.304,0.43011
8.312,0.46432
8.32,0.49756
8.328,0.52884
8.336,0.55718
8.344,0.57967
8.352,0.59726
8.36,0.61486
8.368,0.62952
8.376,0.64027
8.384,0.64712
8.392,0.65005
8.4,0.64907
8.408,0.64516
8.416,0.63636
8.424,0.62463
8.432,0.60997
8.44,0.59335
8.448,0.57674
8.456,0.56012
8.464,0.54057
8.472,0.52102
8.48,0.50049
8.488,0.47898
8.496,0.45943
8.504,0.44184
8.512,0.42424
8.52,0.40762
8.528,0.39394
8.536,0.38123
8.544,0.37243
8.552,0.36559
8.56,0.35875
8.568,0.35386
8.576,0.34897
8.584,0.34604
8.592,0.34311
8.6,0.34018
8.608,0.33822
8.616,0.33627
8.624,0.33431
8.632,0.33333
8.64,0.33236
8.648,0.33138
8.656,0.33138
8.664,0.3304
8.672,0.32942
8.68,0.32942
8.688,0.32845
8.696,0.32845
8.704,0.32747
8.712,0.32649
8.72,0.32551
8.728,0.32454
8.736,0.32258
8.744,0.32258
8.752,0.3216
8.76,0.3216
8.768,0.32063
8.776,0.31965
8.784,0.31769
8.792,0.31574
8.8,0.31378
8.808,0.31085
8.816,0.31281
8.824,0.31867
8.832,0.32063
8.84,0.32063
8.848,0.32063
8.856,0.3216
8.864,0.32258
8.872,0.32649
8.88,0.33431
8.888,0.34702
8.896,0.36461
8.904,0.38905
8.912,0.41838
8.92,0.45064
8.928,0.4868
8.936,0.52395
8.944,0.55621
8.952,0.58553
8.96,0.61779
8.968,0.65005
8.976,0.68035
8.984,0.70772
8.992,0.73118
9,0.75073
9.008,0.76637
9.016,0.77615
9.024,0.78201
9.032,0.78397
9.04,0.78104
9.048,0.77419
9.056,0.76442
9.064,0.75073
9.072,0.73509
9.08,0.7175
9.088,0.69697
9.096,0.67546
9.104,0.652
9.112,0.62659
9.12,0.60215
9.128,0.57771
9.136,0.55425
9.144,0.53372
9.152,0.51613
9.16,0.49853
9.168,0.48192
9.176,0.46628
9.184,0.45259
9.192,0.43891
9.2,0.42815
9.208,0.41935
9.216,0.41251
9.224,0.40665
9.232,0.40274
9.24,0.40078
9.248,0.39883
9.256,0.39785
9.264,0.39687
9.272,0.39589
9.28,0.39492
9.288,0.39394
9.296,0.39198
9.304,0.39003
9.312,0.38807
9.32,0.38612
9.328,0.38416
9.336,0.38123
9.344,0.37928
9.352,0.3783
9.36,0.37634
9.368,0.37439
9.376,0.37146
9.384,0.36852
9.392,0.36461
9.4,0.36168
9.408,0.35777
9.416,0.35484
9.424,0.35093
9.432,0.34604
9.44,0.34115
9.448,0.33724
9.456,0.33333
9.464,0.32845
9.472,0.32356
9.48,0.31867
9.488,0.31574
9.496,0.31378
9.504,0.31476
9.512,0.31867
9.52,0.32649
9.528,0.34018
9.536,0.35973
9.544,0.38025
9.552,0.40371
9.56,0.43304
9.568,0.46725
9.576,0.50342
9.584,0.54057
9.592,0.57674
9.6,0.61193
9.608,0.64516
9.616,0.67546
9.624,0.70186
9.632,0.72532
9.64,0.74096
9.648,0.75073
9.656,0.75953
9.664,0.7654
9.672,0.76637
9.68,0.76344
9.688,0.7566
9.696,0.74585
9.704,0.73216
9.712,0.71457
9.72,0.69501
9.728,0.67351
9.736,0.65005
9.744,0.62757
9.752,0.60606
9.76,0.5826
9.768,0.55816
9.776,0.5347
9.784,0.51222
9.792,0.49071
9.8,0.47116
9.808,0.45259
9.816,0.43695
9.824,0.42229
9.832,0.40958
9.84,0.40078
9.848,0.39394
9.856,0.38807
9.864,0.38319
9.872,0.38025
9.88,0.37732
9.888,0.37439
9.896,0.37341
9.904,0.37146
9.912,0.37048
9.92,0.3695
9.928,0.36852
9.936,0.36657
9.944,0.36559
9.952,0.36461
9.96,0.36266
9.968,0.36168
9.976,0.3607
9.984,0.35875
9.992,0.35777
10,0.35679
10.008,0.35582
10.016,0.35386
10.024,0.35191
10.032,0.34897
10.04,0.34702
10.048,0.34506
10.056,0.34115
10.064,0.33627
10.072,0.33138
10.08,0.32649
10.088,0.3216
10.096,0.31672
10.104,0.31183
10.112,0.30694
10.12,0.30205
10.128,0.29814
10.136,0.29423
10.144,0.29326
10.152,0.29423
10.16,0.29814
10.168,0.30694
10.176,0.3216
10.184,0.34018
10.192,0.36461
10.2,0.39394
10.208,0.42717
10.216,0.46237
10.224,0.49853
10.232,0.5347
10.24,0.565
10.248,0.59238
10.256,0.62072
10.264,0.64809
10.272,0.67253
10.28,0.69404
10.288,0.71065
10.296,0.72239
10.304,0.72923
10.312,0.73118
10.32,0.72923
10.328,0.72239
10.336,0.71163
10.344,0.6999
10.352,0.68426
10.36,0.66667
10.368,0.64614
10.376,0.62366
10.384,0.59922
10.392,0.57478
10.4,0.54936
10.408,0.52395
10.416,0.49951
10.424,0.47605
10.432,0.45357
10.44,0.435
10.448,0.42033
10.456,0.40469
10.464,0.39101
10.472,0.37732
10.48,0.36657
10.488,0.35777
10.496,0.34995
10.504,0.34311
10.512,0.3392
10.52,0.33627
10.528,0.33333
10.536,0.33236
10.544,0.33138
10.552,0.33138
10.56,0.33138
10.568,0.3304
10.576,0.32942
10.584,0.32845
10.592,0.32649
10.6,0.32551
10.608,0.32454
10.616,0.32356
10.624,0.3216
10.632,0.31965
10.64,0.31769
10.648,0.31672
10.656,0.31574
10.664,0.31281
10.672,0.31085
10.68,0.30792
10.688,0.30401
10.696,0.3001
10.704,0.29521
10.712,0.2913
10.72,0.28739
10.728,0.28348
10.736,0.27957
10.744,0.27566
10.752,0.27273
10.76,0.26979
10.768,0.26588
10.776,0.26197
10.784,0.26002
10.792,0.26002
10.8,0.26393
10.808,0.27273
10.816,0.28739
10.824,0.30694
10.832,0.33236
10.84,0.35875
10.848,0.38514
10.856,0.41838
10.864,0.44868
10.872,0.47605
10.88,0.50635
10.888,0.53763
10.896,0.56696
10.904,0.59433
10.912,0.61779
10.92,0.63832
10.928,0.65494
10.936,0.66667
10.944,0.67351
10.952,0.67644
10.96,0.67742
10.968,0.67449
10.976,0.66764
10.984,0.65787
10.992,0.64516
11,0.62854
11.008,0.60997
11.016,0.58944
11.024,0.56794
11.032,0.54643
11.04,0.5259
11.048,0.50831
11.056,0.48876
11.064,0.46921
11.072,0.45064
11.08,0.43304
11.088,0.41838
11.096,0.40469
11.104,0.39198
11.112,0.38221
11.12,0.37439
11.128,0.36852
11.136,0.36364
11.144,0.36168
11.152,0.35875
11.16,0.35679
11.168,0.35582
11.176,0.35386
11.184,0.35288
11.192,0.35093
11.2,0.34995
11.208,0.348
11.216,0.34604
11.224,0.34506
11.232,0.34409
11.24,0.34409
11.248,0.34506
11.256,0.34409
11.264,0.34409
11.272,0.34311
11.28,0.34213
11.288,0.34115
11.296,0.34018
11.304,0.3392
11.312,0.33724
11.32,0.33724
11.328,0.33724
11.336,0.33627
11.344,0.33627
11.352,0.33627
11.36,0.33431
11.368,0.33236
11.376,0.32942
11.384,0.32551
11.392,0.3216
11.4,0.31867
11.408,0.31574
11.416,0.31378
11.424,0.31476
11.432,0.31965
11.44,0.32649
11.448,0.33724
11.456,0.35288
11.464,0.37439
11.472,0.40078
11.48,0.43109
11.488,0.46432
11.496,0.49951
11.504,0.53568
11.512,0.57087
11.52,0.60411
11.528,0.63539
11.536,0.65885
11.544,0.67742
11.552,0.69599
11.56,0.71163
11.568,0.72532
11.576,0.73509
11.584,0.74096
